,theta,p,pT,y,xsect_pT_y,error,log10theta,log10p,E,xsect_p_theta,xsect_log10theta_log10p,xsect_pT2_y
0,1e-06,1.0,9.999999999998333e-07,0.20900140357911612,67.16877219998881,4940.29,-6.0,0.0,4.8541219597369,13.837471072446942,7.336486173280595e-05,33584386.1
1,1.3379855589526716e-06,1.0,1.3379855589522724e-06,0.20900140357903105,68.55686115950792,4940.29,-5.8735485739381605,0.0,4.8541219597369,14.123431946737448,0.00010018969282918827,25619432.4
2,1.7902053559658965e-06,1.0,1.7902053559649402e-06,0.20900140357887892,32.29422845755984,4940.29,-5.74709714787632,0.0,4.8541219597369,6.652949539675396,6.314638003688798e-05,9019699.43
3,2.3952689138420964e-06,1.0,2.395268913839806e-06,0.20900140357860644,26.725409940988488,4940.29,-5.620645721814481,0.0,4.8541219597369,5.505714558197265,6.99196663763952e-05,5578791.13
4,3.2048352165289827e-06,1.0,3.2048352165234965e-06,0.20900140357811883,22.80706944660698,4940.29,-5.49419429575264,0.0,4.8541219597369,4.6984953480326554,7.983546935132794e-05,3558228.1
5,4.288023238538737e-06,1.0,4.288023238525596e-06,0.20900140357724575,27.6039892259394,4940.29,-5.367742869690801,0.0,4.8541219597369,5.686711099330429,0.00012928545647560523,3218731.3
6,5.7373131696183086e-06,1.0,5.737313169586833e-06,0.20900140357568273,36.361285565879406,4940.29,-5.241291443628961,0.0,4.8541219597369,7.490805931017489,0.00022786020273406072,3168842.67
7,7.676442168138276e-06,1.0,7.676442168062883e-06,0.20900140357288483,48.052179594885594,4940.29,-5.114840017567121,0.0,4.8541219597369,9.899252633835777,0.00040289675325253904,3129847.04
8,1.0270968765104371e-05,1.0,1.0270968764923785e-05,0.20900140356787578,63.06394418671608,4940.29,-4.988388591505281,0.0,4.8541219597369,12.99183347880576,0.0007074784754947337,3070009.54
9,1.3742407884163602e-05,1.0,1.3742407883731051e-05,0.20900140355890862,82.40475228184532,4940.29,-4.861937165443441,0.0,4.8541219597369,16.97624265837601,0.0012369034086871912,2998191.91
10,1.8387143294248238e-05,1.0,1.838714329321216e-05,0.20900140354285549,109.54507734634137,4940.29,-4.735485739381602,0.0,4.8541219597369,22.567434080761924,0.00220002603656612,2978849.83
11,2.4601732198097645e-05,1.0,2.4601732195615963e-05,0.20900140351411706,145.8083654938313,4940.29,-4.6090343133197615,0.0,4.8541219597369,30.038051516475353,0.003918039606607663,2963376.0
12,3.291676240627562e-05,1.0,3.2916762400331324e-05,0.20900140346266946,193.81362643736392,4940.29,-4.482582887257922,0.0,4.8541219597369,39.92763841637569,0.006968224177075261,2943995.89
13,4.4042152747073056e-05,1.0,4.404215273283488e-05,0.20900140337056786,257.902819280724,4940.29,-4.356131461196082,0.0,4.8541219597369,53.130683864132386,0.01240638693875111,2927908.87
14,5.892776436077148e-05,1.0,5.892776432666722e-05,0.20900140320568691,343.1791826949665,4940.29,-4.229680035134242,0.0,4.8541219597369,70.69850851328162,0.022088264494392017,2911863.25
15,7.884449773607815e-05,1.0,7.884449765438927e-05,0.20900140291051605,456.5785373178543,4940.29,-4.103228609072403,0.0,4.8541219597369,94.05996410988435,0.03931946292207273,2895436.91
16,0.00010549279937374939,1.0,0.00010549279917808257,0.2090014023820998,607.4536998815956,4940.29,-3.9767771830105625,0.0,4.8541219597369,125.1418289281138,0.0699933358404844,2879124.0
17,0.00014114784213556825,1.0,0.0001411478416668936,0.209001401436126,808.1083629856552,4940.29,-3.8503257569487226,0.0,4.8541219597369,166.47879259907506,0.12458465041670955,2862630.96
18,0.00018885377445472195,1.0,0.0001888537733321201,0.20900139974263887,1075.0685972545784,4940.29,-3.7238743308868827,0.0,4.8541219597369,221.47539888199444,0.22175965589851124,2846298.96
19,0.00025268362297412315,1.0,0.0002526836202851898,0.20900139671094897,1430.0987290046642,4940.29,-3.597422904825043,0.0,4.8541219597369,294.61532711101836,0.3946969854872498,2829820.8
20,0.0003380870385232187,1.0,0.0003380870320825003,0.20900139128360157,1902.3918741072455,4940.29,-3.470971478763203,0.0,4.8541219597369,391.9126651301439,0.7025046400247036,2813464.72
21,0.00045235557521314213,1.0,0.00045235555978588967,0.2090013815675354,2530.5564441256765,4940.29,-3.3445200527013634,0.0,4.8541219597369,521.321150378108,1.2503070201184028,2797087.81
22,0.0006052452271469138,1.0,0.0006052451901944958,0.2090013641737821,3365.9765496532686,4940.29,-3.2180686266395235,0.0,4.8541219597369,693.4264481965569,2.225169778958936,2780671.87
23,0.000809809373547601,1.0,0.0008098092850366243,0.20900133303539323,4477.099692860806,4940.29,-3.0916172005776836,0.0,4.8541219597369,922.3294614343539,3.9600462495316977,2764292.64
24,0.0010835132473112007,1.0,0.001083513035303615,0.20900127729128748,5954.751891262446,4940.29,-2.9651657745158437,0.0,4.8541219597369,1226.7413016514324,7.047232342548019,2747891.21
25,0.0014497250778363027,1.0,0.0014497245700211465,0.20900117749790598,7919.828596203985,4940.29,-2.838714348454004,0.0,4.8541219597369,1631.567698936277,12.54071007690443,2731494.23
26,0.0019397112185965128,1.0,0.0019397100022427562,0.20900099884730886,10532.975313450972,4940.29,-2.712262922392164,0.0,4.8541219597369,2169.903311210144,22.315613838970258,2715090.22
27,0.0025953055990206256,1.0,0.0025953026855267173,0.20900067902620925,14007.851678275649,4940.29,-2.585811496330324,0.0,4.8541219597369,2885.7642627164014,39.70824857177515,2698693.25
28,0.00347248141255861,1.0,0.0034724744339590784,0.20900010648126494,18628.404193303613,4940.29,-2.4593600702684846,0.0,4.8541219597369,3837.6465090533693,70.6539222211531,2682295.37
29,0.0046461299837349986,1.0,0.004646113268120442,0.20899908150984484,24772.13770950483,4940.28,-2.3329086442066447,0.0,4.8541219597369,5103.320006168018,125.71165242096257,2665899.03
30,0.006216454823254445,1.0,0.006216414784896669,0.2089972466056652,32940.7748584546,4940.27,-2.2064572181448048,0.0,4.8541219597369,6786.144874744769,223.66461733978747,2649499.43
31,0.00831752678139614,1.0,0.008317430878908827,0.20899396176686813,43801.24118662026,4940.26,-2.080005792082965,0.0,4.8541219597369,9023.514767435787,397.92508592852147,2633099.2
32,0.01112873071971014,1.0,0.011128501008091407,0.20898808128371704,58239.76252088337,4940.24,-1.953554366021125,0.0,4.8541219597369,11998.001493155736,707.9228378067594,2616693.95
33,0.014890080992445138,1.0,0.014889530774038026,0.20897755418067832,77433.98898836892,4940.2,-1.8271029399592855,0.0,4.8541219597369,15952.213321102041,1259.358524012143,2600283.05
34,0.0199227133395273,1.0,0.019921395430025867,0.2089587090472979,102948.0884066854,4940.12,-1.7006515138974452,0.0,4.8541219597369,21208.385215822913,2240.2034748835927,2583857.36
35,0.02665630274344128,1.0,0.02665314604528566,0.20892497412826586,136859.21079046038,4939.99,-1.5742000878356057,0.0,4.8541219597369,28194.431851044454,3984.690891437591,2567411.94
36,0.03566574812579499,1.0,0.035658187197104126,0.20886458727031695,181922.5133945687,4939.75,-1.4477486617737654,0.0,4.8541219597369,37477.9444982114,7086.935486633286,2550922.07
37,0.047720255941557,1.0,0.04770214639429596,0.2087565002566117,241789.10873053127,4939.33,-1.321297235711926,0.0,4.8541219597369,49811.09060218927,12602.601163798401,2534362.99
38,0.06384901331932882,1.0,0.06380563998639431,0.20856305953342905,321283.0414806915,4938.58,-1.1948458096500856,0.0,4.8541219597369,66187.67392859356,22405.915121912847,2517669.61
39,0.08542905777463874,1.0,0.08532518371128282,0.20821694420677878,426752.2715014611,4937.23,-1.0683943835882461,0.0,4.8541219597369,87915.44074112874,39820.08213358183,2500740.42
40,0.11430284561740033,1.0,0.11405411103739231,0.20759791346791137,566482.1703320591,4934.84,-0.9419429575264058,0.0,4.8541219597369,116701.26441626599,70723.53847230636,2483392.16
41,0.1529355567832783,1.0,0.15234007805908376,0.20649159812699439,751124.8202044948,4930.66,-0.8154915314645663,0.0,4.8541219597369,154739.58553880398,125470.39789018763,2465289.6
42,0.20462556642641266,1.0,0.20320055234004175,0.20451706018260032,994002.8271799543,4923.1,-0.6890401054027269,0.0,4.8541219597369,204775.00059224523,222161.19758244377,2445866.45
43,0.27378605287105134,1.0,0.27037840385263884,0.20100132058048029,1310875.2963522323,4909.8,-0.5625886793408865,0.0,4.8541219597369,270054.05039787747,392006.6130136252,2424149.41
44,0.3663217849841193,1.0,0.3581836930624125,0.19476792519247269,1718254.656450745,4886.57,-0.43613725327904707,0.0,4.8541219597369,353978.4683415488,687497.2571867387,2398566.28
45,0.4901332582385183,1.0,0.4707434621147049,0.18379900883664252,2228352.056309463,4847.8,-0.3096858272172067,0.0,4.8541219597369,459063.87906871684,1192940.1959291457,2366843.34
46,0.655791221485558,1.0,0.6097865291473271,0.16475145148553186,2837218.0556639414,4788.17,-0.1832344011553672,0.0,4.8541219597369,584496.6564906257,2032258.7749719978,2326402.7
47,0.8774391840356113,1.0,0.7691047266944779,0.13243485427956928,3501787.9809948117,4708.25,-0.05678297509352694,0.0,4.8541219597369,721405.0264992957,3356043.383522252,2276535.21
48,1.1740009570988634,1.0,0.9223042042021292,0.07978463835062878,4103267.5625982583,4627.87,0.06966845096831252,0.0,4.8541219597369,845316.1244470794,5261613.9660249455,2224465.39
49,1.5707963267948966,1.0,1.0,0.0,4393075.6,4613.06,0.19611987703015263,0.0,4.8541219597369,905019.6176443227,7537186.25937334,2196537.8
50,1e-06,1.1962296378112978,1.1962296378110983e-06,0.24924902109368258,42.64192636451988,4914.89,-6.0,0.0778145582988338,4.898312499869537,10.41369576399306,6.604665410158207e-05,17823470.1
51,1.3379855589526716e-06,1.1962296378112978,1.6005379805822236e-06,0.24924902109358002,19.824129398440927,4914.89,-5.8735485739381605,0.0778145582988338,4.898312499869537,4.8413022098636835,4.10827545965437e-05,6192958.13
52,1.7902053559658965e-06,1.1962296378112978,2.1414967045737857e-06,0.2492490210933964,12.843548792180837,4914.89,-5.74709714787632,0.0778145582988338,4.898312499869537,3.1365564610856125,3.561245368952088e-05,2998731.86
53,2.3952689138420964e-06,1.1962296378112978,2.8652916652632515e-06,0.2492490210930674,24.61490821417199,4914.89,-5.620645721814481,0.0778145582988338,4.898312499869537,6.01127076693893,9.132012647713276e-05,4295358.22
54,3.2048352165289827e-06,1.1962296378112978,3.833718870306794e-06,0.24924902109247887,29.20595635965181,4914.89,-5.49419429575264,0.0778145582988338,4.898312499869537,7.13246257746303,0.00014497434044793175,3809089.47
55,4.288023238538737e-06,1.1962296378112978,5.129460485547902e-06,0.2492490210914249,30.8722416648733,4914.89,-5.367742869690801,0.0778145582988338,4.898312499869537,7.539390446440047,0.00020504033415206895,3009306.9
56,5.7373131696183086e-06,1.1962296378112978,6.8631440548648455e-06,0.24924902108953814,43.086309131152625,4914.89,-5.241291443628961,0.0778145582988338,4.898312499869537,10.52221963542691,0.0003828792714314628,3138962.9
57,7.676442168138276e-06,1.1962296378112978,9.182787634381235e-06,0.24924902108616065,55.835753983921876,4914.89,-5.114840017567121,0.0778145582988338,4.898312499869537,13.635794728671671,0.0006638750894273893,3040239.86
58,1.0270968765104371e-05,1.1962296378112978,1.2286437245635932e-05,0.24924902108011412,73.87822060770523,4914.89,-4.988388591505281,0.0778145582988338,4.898312499869537,18.04199243761034,0.0011752813393179182,3006494.85
59,1.3742407884163602e-05,1.1962296378112978,1.643907560541072e-05,0.24924902106928967,98.07101483709724,4914.89,-4.861937165443441,0.0778145582988338,4.898312499869537,23.950177650260546,0.002087456861934709,2982862.82
60,1.8387143294248238e-05,1.1962296378112978,2.1995245762023615e-05,0.24924902104991162,130.49692341406868,4914.89,-4.735485739381602,0.0778145582988338,4.898312499869537,31.86899313493326,0.003716452093569976,2966480.23
61,2.4601732198097645e-05,1.1962296378112978,2.942932119389223e-05,0.249249021015221,173.5491544394013,4914.89,-4.6090343133197615,0.0778145582988338,4.898312499869537,42.382890467488835,0.00661305590576548,2948575.56
62,3.291676240627562e-05,1.1962296378112978,3.937600676406888e-05,0.2492490209531176,230.99338766662697,4914.89,-4.482582887257922,0.0778145582988338,4.898312499869537,56.41149609638288,0.011776891292838376,2933174.37
63,4.4042152747073056e-05,1.1962296378112978,5.268452841202893e-05,0.24924902084193998,307.35690989311047,4914.89,-4.356131461196082,0.0778145582988338,4.898312499869537,75.06043050745085,0.02096648006260107,2916956.07
64,5.892776436077148e-05,1.1962296378112978,7.049113817751863e-05,0.24924902064290877,408.9310901595034,4914.89,-4.229680035134242,0.0778145582988338,4.898312499869537,99.86612530015404,0.03732364934624,2900585.1
65,7.884449773607815e-05,1.1962296378112978,9.43161248725238e-05,0.24924902028660234,544.0493507517364,4914.89,-4.103228609072403,0.0778145582988338,4.898312499869537,132.8637072090756,0.06643909265271741,2884179.94
66,0.00010549279937374939,1.1962296378112978,0.00012619361295249768,0.24924901964874055,723.7998874019678,4914.89,-3.9767771830105625,0.0778145582988338,4.898312499869537,176.76105335822794,0.11826475424036728,2867815.06
67,0.00014114784213556825,1.1962296378112978,0.00016884523151503453,0.24924901850683703,962.891910030554,4914.89,-3.8503257569487226,0.0778145582988338,4.898312499869537,235.15033816604327,0.21050663373160103,2851403.92
68,0.00018885377445472195,1.1962296378112978,0.00022591248087237896,0.24924901646259506,1280.933399454573,4914.89,-3.7238743308868827,0.0778145582988338,4.898312499869537,312.8200776350528,0.3746849285861431,2835021.32
69,0.00025268362297412315,1.1962296378112978,0.0003022676355746001,0.2492490128029823,1703.959516303042,4914.89,-3.597422904825043,0.0778145582988338,4.898312499869537,416.1283860689965,0.6668841152694565,2818627.13
70,0.0003380870385232187,1.1962296378112978,0.0004044297279367459,0.24924900625152405,2266.6118750170704,4914.89,-3.470971478763203,0.0778145582988338,4.898312499869537,553.5351822454514,1.1869151859119078,2802232.03
71,0.00045235557521314213,1.1962296378112978,0.0005411211274446016,0.24924899452306845,3014.9561010038087,4914.89,-3.3445200527013634,0.0778145582988338,4.898312499869537,736.2902723778459,2.1123940997092854,2785842.16
72,0.0006052452271469138,1.1962296378112978,0.0007240122346533918,0.24924897352672493,4010.2340598471847,4914.89,-3.2180686266395235,0.0778145582988338,4.898312499869537,979.3496917718699,3.7593702478270012,2769451.86
73,0.000809809373547601,1.1962296378112978,0.0009687178677355871,0.24924893593896055,5333.886009341657,4914.89,-3.0916172005776836,0.0778145582988338,4.898312499869537,1302.602177638005,6.690222090893589,2753064.74
74,0.0010835132473112007,1.1962296378112978,0.0012961304057850633,0.24924886864914955,7094.169342458594,4914.89,-2.9651657745158437,0.0778145582988338,4.898312499869537,1732.4855495290026,11.905558739364688,2736672.68
75,0.0014497250778363027,1.1962296378112978,0.0017342034973225355,0.24924874818658954,9435.036445189597,4914.89,-2.838714348454004,0.0778145582988338,4.898312499869537,2304.154794098203,21.1857205321766,2720279.5
76,0.0019397112185965128,1.1962296378112978,0.002320338593441804,0.24924853253393384,12547.875070030093,4914.89,-2.712262922392164,0.0778145582988338,4.898312499869537,3064.3492122487687,37.69825685451418,2703888.8
77,0.0025953055990206256,1.1962296378112978,0.0031045779915183135,0.2492481464716,16687.085965829952,4914.88,-2.585811496330324,0.0778145582988338,4.898312499869537,4075.196672642347,67.07844902706181,2687496.66
78,0.00347248141255861,1.1962296378112978,0.004153876834443859,0.24924745534140208,22190.896154605423,4914.88,-2.4593600702684846,0.0778145582988338,4.898312499869537,5419.296476171903,119.3517458797674,2671106.66
79,0.0046461299837349986,1.1962296378112978,0.005557818391953981,0.24924621807853392,29508.826140456866,4914.87,-2.3329086442066447,0.0778145582988338,4.898312499869537,7206.4271945033,212.35245922778273,2654713.06
80,0.006216454823254445,1.1962296378112978,0.00743625960662174,0.24924400313069514,39238.459387852425,4914.86,-2.2064572181448048,0.0778145582988338,4.898312499869537,9582.526240017187,377.80589906580434,2638319.63
81,0.00831752678139614,1.1962296378112978,0.00994955732779761,0.24924003794092253,52173.89505542637,4914.85,-2.080005792082965,0.0778145582988338,4.898312499869537,12741.522633972343,672.1426805656563,2621920.42
82,0.01112873071971014,1.1962296378112978,0.013312242730291846,0.24923293950653433,69370.58196567591,4914.81,-1.953554366021125,0.0778145582988338,4.898312499869537,16941.170278901078,1195.7350985593846,2605518.22
83,0.014890080992445138,1.1962296378112978,0.01781129800500768,0.24922023207426228,92230.59762671773,4914.75,-1.8271029399592855,0.0778145582988338,4.898312499869537,22523.87417035288,2127.0910890784276,2589103.77
84,0.0199227133395273,1.1962296378112978,0.023830563639955487,0.24919748387555948,122616.44239873913,4914.64,-1.7006515138974452,0.0778145582988338,4.898312499869537,29944.480366301705,3783.6521514083397,2572671.89
85,0.02665630274344128,1.1962296378112978,0.03188328324028369,0.24915676221844354,163000.53786460072,4914.45,-1.5742000878356057,0.0778145582988338,4.898312499869537,39806.785373128274,6729.81235458286,2556206.91
86,0.03566574812579499,1.1962296378112978,0.04265538035579932,0.24908386942798819,216662.24262850417,4914.11,-1.4477486617737654,0.0778145582988338,4.898312499869537,52911.64988631944,11968.743996260318,2539682.46
87,0.047720255941557,1.1962296378112978,0.057062721304070155,0.24895339987623857,287944.27786027826,4913.49,-1.321297235711926,0.0778145582988338,4.898312499869537,70319.62113969056,21282.626439999807,2523050.7
88,0.06384901331932882,1.1962296378112978,0.07632619761124253,0.2487199079060693,382581.5514682151,4912.39,-1.1948458096500856,0.0778145582988338,4.898312499869537,93431.23591202006,37834.867710561346,2506226.98
89,0.08542905777463874,1.1962296378112978,0.10206851360713029,0.24830215053380408,508109.2722132625,4910.43,-1.0683943835882461,0.0778145582988338,4.898312499869537,124086.68713652343,67232.11011720003,2489059.82
90,0.11430284561740033,1.1962296378112978,0.13643490793714935,0.24755505100387798,674337.2628812444,4907.03,-0.9419429575264058,0.0778145582988338,4.898312499869537,164681.6571544951,119384.57198205999,2471278.33
91,0.1529355567832783,1.1962296378112978,0.18223371640076258,0.24622005734716823,893821.2697979386,4900.84,-0.8154915314645663,0.0778145582988338,4.898312499869537,218282.4174380259,211725.496078424,2452403.67
92,0.20462556642641266,1.1962296378112978,0.2430745231287838,0.24383801927090026,1182122.1356282528,4889.83,-0.6890401054027269,0.0778145582988338,4.898312499869537,288689.1218534885,374659.06913745374,2431604.35
93,0.27378605287105134,1.1962296378112978,0.32343466011263894,0.2395987231939066,1557323.2109774805,4870.29,-0.5625886793408865,0.0778145582988338,4.898312499869537,380317.95249329973,660395.4655933827,2407477.31
94,0.3663217849841193,1.1962296378112978,0.42846994942196276,0.23208866574547585,2037607.5771823325,4836.76,-0.43613725327904707,0.0778145582988338,4.898312499869537,497609.4469512301,1156105.0523381112,2377771.86
95,0.4901332582385183,1.1962296378112978,0.5631172811875098,0.21889172039100568,2634550.4844246227,4781.59,-0.3096858272172067,0.0778145582988338,4.898312499869537,643390.4271854408,2000021.6798418853,2339255.58
96,0.655791221485558,1.1962296378112978,0.7294447189041154,0.19602742727157627,3338489.603990167,4697.05,-0.1832344011553672,0.0778145582988338,4.898312499869537,815301.230765556,3391014.387897306,2288377.39
97,0.8774391840356113,1.1962296378112978,0.9200258686526925,0.15736815468228355,4092848.405488003,4586.48,-0.05678297509352694,0.0778145582988338,4.898312499869537,999525.156029523,5562329.212898958,2224311.59
98,1.1740009570988634,1.1962296378112978,1.1032876241445502,0.09466128257996438,4759567.717584891,4477.26,0.06966845096831252,0.0778145582988338,4.898312499869537,1162346.4136060253,8654659.111355357,2156993.16
99,1.5707963267948966,1.1962296378112978,1.1962296378112978,0.0,5074289.730451766,4451.32,0.19611987703015263,0.0778145582988338,4.898312499869537,1239205.4950698991,12345513.061757779,2120951.35
